# Data for Fig.3 of Phys.Lett. B766 (2017) 186-191, dis (blue line)
# Two columns: Wgp (GeV) vs cross section (nb) 
30.969   37.6168
34.7478   40.1125
38.9877   42.3919
43.7449   45.0388
49.0826   47.5637
55.0715   50.1592
61.7913   52.5446
69.331   55.0777
77.7906   57.8842
87.2825   60.7712
97.9326   63.545
109.882   66.914
123.29   69.674
138.333   71.4971
155.213   74.9241
174.151   77.6469
195.401   79.8961
219.244   81.6645
245.996   83.9139
276.012   85.5214
309.69   87.1594
347.478   88.5677
389.877   89.3438
437.449   90.0645
490.826   89.9
550.715   90.0209
617.913   89.6934
693.31   88.7965
777.906   87.4178
872.825   85.7078
979.326   83.9793
1098.82   81.715
1232.9   79.3595
1383.33   76.9879
1552.13   73.7219
1741.52   70.6035
1954.01   67.624
2192.44   64.229
2459.96   60.6067
2760.12   57.4941
3096.9   53.9378
