# Data for Fig.3 of Phys.Lett. B766 (2017) 186-191, exc (blue line)
# Two columns: Wgp (GeV) vs cross section (nb) 
30.969   36.1399
34.7478   39.4327
38.9877   42.5656
43.7449   46.2753
49.0826   50.0892
55.0715   53.8544
61.7913   58.184
69.331   63.0239
77.7906   67.7029
87.2825   72.7314
97.9326   78.4813
109.882   84.2514
123.29   90.6986
138.333   97.6692
155.213   104.372
174.151   112.231
195.401   120.252
219.244   128.286
245.996   137.864
276.012   146.837
309.69   156.929
347.478   167.455
389.877   177.789
437.449   189.799
490.826   201.631
550.715   214.374
617.913   227.845
693.31   241.378
777.906   255.922
872.825   270.457
979.326   286.409
1098.82   301.852
1232.9   318.483
1383.33   336.827
1552.13   354.674
1741.52   371.959
1954.01   392.057
2192.44   411.187
2459.96   431.947
2760.12   452.515
3096.9   473.478
